,Room Exergy Demand [W]
72.0,-0.07535001914159146
72.01666666666667,-0.0779933144616659
72.03333333333333,-0.07959115970339507
72.05,-0.08057973292626561
72.06666666666666,-0.08121246979159921
72.08333333333333,-0.08163677415176247
72.1,-0.0819384915814253
72.11666666666666,-0.08216770287659539
72.13333333333334,-0.08235369055761495
72.15,-0.08251362804247023
72.16666666666667,-0.08265762790974146
72.18333333333334,-0.08279167746210755
72.2,-0.08291934763328959
72.21666666666667,-0.08304278922480166
72.23333333333333,-0.08316331469714543
72.25,-0.08328173872316896
72.26666666666667,-0.08339857812455656
72.28333333333333,-0.08351416969586997
72.3,-0.08362873997452633
72.31666666666666,-0.08374244687876745
72.33333333333333,-0.08385540468024197
72.35,-0.08396769922077055
72.36666666666666,-0.0840793972702539
72.38333333333334,-0.08419055238782683
72.4,-0.08430120869957294
72.41666666666667,-0.0844114033321228
72.43333333333334,-0.08452116810330453
72.45,-0.08463053066452042
72.46666666666667,-0.08473951533818642
72.48333333333333,-0.084848143726813
72.5,-0.08495643520036769
72.51666666666667,-0.08506440724800847
72.53333333333333,-0.08517207578017501
72.55,-0.08527945537289884
72.56666666666666,-0.08538655946514437
72.58333333333333,-0.08549340052717504
72.6,-0.08559999019725621
72.61666666666666,-0.08570633941323272
72.63333333333334,-0.08581245850109315
72.65,-0.08591835727446656
72.66666666666667,-0.08602404510878217
72.68333333333334,-0.08612953099713246
72.7,-0.08623482361603325
72.71666666666667,-0.08633993136632095
72.73333333333333,-0.08644486241726558
72.75,-0.08654962473892233
72.76666666666667,-0.08665422612470591
72.78333333333333,-0.08675867422294231
72.8,-0.08686297655027563
72.81666666666666,-0.08696714050873522
72.83333333333333,-0.08707117340411415
72.85,-0.0871750824451162
72.86666666666666,-0.08727887474810517
72.88333333333334,-0.08738255735485453
72.9,-0.08748613723282249
72.91666666666667,-0.08758962126577469
72.93333333333334,-0.0876930162623447
72.95,-0.08779632895497942
72.96666666666667,-0.08789956599292864
72.98333333333333,-0.08800273395027888
73.0,-0.08810583930456967
73.01666666666667,-0.08551429775948668
73.03333333333333,-0.08401233091998338
73.05,-0.08314513280678522
73.06666666666666,-0.08264854797048979
73.08333333333333,-0.08236899633585859
73.1,-0.0822170687569132
73.11666666666666,-0.0821406245219658
73.13333333333334,-0.08210918746318198
73.15,-0.08210489024814692
73.16666666666667,-0.0821172151025952
73.18333333333334,-0.08213993670979453
73.2,-0.08216934317298503
73.21666666666667,-0.08220319931017171
73.23333333333333,-0.08224014139730064
73.25,-0.08227932302703987
73.26666666666667,-0.08232020725303736
73.28333333333333,-0.08236244414900112
73.3,-0.08240579828537915
73.31666666666666,-0.0824501055243432
73.33333333333333,-0.08249524706190071
73.35,-0.08254113360857875
73.36666666666666,-0.08258769570778048
73.38333333333334,-0.08263487762748313
73.4,-0.08268263345573744
73.41666666666667,-0.08273092454441912
73.43333333333334,-0.08277971778315836
73.45,-0.08282898439294938
73.46666666666667,-0.08287869906384429
73.48333333333333,-0.0829288393138806
73.5,-0.08297938499615906
73.51666666666667,-0.08303031792045572
73.53333333333333,-0.08308162154060839
73.55,-0.08313328070404664
73.56666666666666,-0.083185281450349
73.58333333333333,-0.08323761083112857
73.6,-0.08329025676663136
73.61666666666666,-0.08334320790870522
73.63333333333334,-0.083396453556071
73.65,-0.08344998354468176
73.66666666666667,-0.08350378818061889
73.68333333333334,-0.08355785815889111
73.7,-0.08361218452625911
73.71666666666667,-0.08366675861774983
73.73333333333333,-0.08372157201415859
73.75,-0.08377661652045319
73.76666666666667,-0.08383188412610418
73.78333333333333,-0.08388736698514329
73.8,-0.08394305738616378
73.81666666666666,-0.08399894775914475
73.83333333333333,-0.08405503063660139
73.85,-0.08411129866063177
73.86666666666666,-0.08416774457381483
73.88333333333334,-0.08422436120419856
73.9,-0.08428114146957731
73.91666666666667,-0.08433807838863423
73.93333333333334,-0.08439516504507509
73.95,-0.0844523946291605
73.96666666666667,-0.0845097604061277
73.98333333333333,-0.08456725574414187
74.0,-0.0846248740940453
74.01666666666667,-0.08262709174895404
74.03333333333333,-0.0814621828358651
74.05,-0.08078242708495434
74.06666666666666,-0.0803859128499893
74.08333333333333,-0.0801552742533666
74.1,-0.08002219783613933
74.11666666666666,-0.07994685095656125
74.13333333333334,-0.07990595305397108
74.15,-0.07988585456685686
74.16666666666667,-0.07987851845279213
74.18333333333334,-0.07987918490381789
74.2,-0.07988501274490273
74.21666666666667,-0.07989428788363685
74.23333333333333,-0.07990596133217644
74.25,-0.07991937894619841
74.26666666666667,-0.07993412284323617
74.28333333333333,-0.07994991799387428
74.3,-0.07996657693729392
74.31666666666666,-0.07998396680994206
74.33333333333333,-0.08000198956014096
74.35,-0.08002056991715666
74.36666666666666,-0.08003964796683449
74.38333333333334,-0.08005917451668997
74.4,-0.0800791081138091
74.41666666666667,-0.08009941309386573
74.43333333333334,-0.08012005826133911
74.45,-0.08014101596332958
74.46666666666667,-0.08016226144312963
74.48333333333333,-0.08018377232005884
74.5,-0.08020552823840678
74.51666666666667,-0.0802275105543694
74.53333333333333,-0.08024970211250682
74.55,-0.08027208703245665
74.56666666666666,-0.0802946505641214
74.58333333333333,-0.08031737893299158
74.6,-0.08034025923990971
74.61666666666666,-0.0803632793514761
74.63333333333334,-0.08038642781318643
74.65,-0.08040969378093664
74.66666666666667,-0.08043306695730384
74.68333333333334,-0.08045653752530696
74.7,-0.0804800961109783
74.71666666666667,-0.08050373373306899
74.73333333333333,-0.0805274417704464
74.75,-0.08055121193473178
74.76666666666667,-0.08057503622998805
74.78333333333333,-0.08059890693600646
74.8,-0.08062281659635426
74.81666666666666,-0.08064675798858359
74.83333333333333,-0.08067072411144216
74.85,-0.08069470818060996
74.86666666666666,-0.08071870360356269
74.88333333333334,-0.08074270398282461
74.9,-0.08076670311122239
74.91666666666667,-0.08079069494518092
74.93333333333334,-0.08081467362403535
74.95,-0.08083863344453547
74.96666666666667,-0.08086256887619357
74.98333333333333,-0.08088647454422951
75.0,-0.0809103452336244
75.01666666666667,-0.0788754425153476
75.03333333333333,-0.07767583411621008
75.05,-0.07696261079513028
75.06666666666666,-0.07653322249807563
75.08333333333333,-0.07626996252605064
75.1,-0.07610433674151522
75.11666666666666,-0.0759964176088794
75.13333333333334,-0.0759228753659448
75.15,-0.07587003544015794
75.16666666666667,-0.07582984851213231
75.18333333333334,-0.07579754915897013
75.2,-0.07577029404255743
75.21666666666667,-0.0757463686866882
75.23333333333333,-0.07572472463550571
75.25,-0.07570470874954921
75.26666666666667,-0.0756859043943729
75.28333333333333,-0.0756680379187172
75.3,-0.07565092330071865
75.31666666666666,-0.07563442916621506
75.33333333333333,-0.0756184589807048
75.35,-0.07560293898911859
75.36666666666666,-0.07558781081665787
75.38333333333334,-0.07557302680404356
75.4,-0.07555854703700643
75.41666666666667,-0.07554433738352033
75.43333333333334,-0.07553036817758275
75.45,-0.07551661328267183
75.46666666666667,-0.07550304944462016
75.48333333333333,-0.07548965578169464
75.5,-0.07547641341922359
75.51666666666667,-0.07546330517139369
75.53333333333333,-0.07545031533045903
75.55,-0.07543742943929138
75.56666666666666,-0.07542463414926819
75.58333333333333,-0.07541191707354467
75.6,-0.07539926666626642
75.61666666666666,-0.07538667213435901
75.63333333333334,-0.07537412333286245
75.65,-0.07536161071236344
75.66666666666667,-0.07534912523122617
75.68333333333334,-0.07533665832431125
75.7,-0.07532420182022422
75.71666666666667,-0.0753117479420847
75.73333333333333,-0.07529928922777372
75.75,-0.07528681853604755
75.76666666666667,-0.07527432898574624
75.78333333333333,-0.07526181396201102
75.8,-0.07524926707518828
75.81666666666666,-0.07523668215245893
75.83333333333333,-0.0752240532320531
75.85,-0.07521137452242595
75.86666666666666,-0.07519864042736096
75.88333333333334,-0.07518584552028773
75.9,-0.07517298452893896
75.91666666666667,-0.07516005234464217
75.93333333333334,-0.07514704401204989
75.95,-0.07513395472594442
75.96666666666667,-0.07512077982467526
75.98333333333333,-0.07510751479065586
76.0,-0.07509415524938763
76.01666666666667,-0.07778911499269527
76.03333333333333,-0.07938596716094341
76.05,-0.0803431044310872
76.06666666666666,-0.08092672485145277
76.08333333333333,-0.08129157200398496
76.1,-0.0815277186065148
76.11666666666666,-0.08168768476520834
76.13333333333334,-0.08180216447813164
76.15,-0.08188915101443274
76.16666666666667,-0.08195923573817025
76.18333333333334,-0.08201868768464177
76.2,-0.08207124537063544
76.21666666666667,-0.08211916077796357
76.23333333333333,-0.08216380874678876
76.25,-0.08220604348521453
76.26666666666667,-0.08224640778120287
76.28333333333333,-0.08228525622854835
76.3,-0.08232282820292676
76.31666666666666,-0.08235929131968153
76.33333333333333,-0.08239476756909507
76.35,-0.08242934919749001
76.36666666666666,-0.08246310847352104
76.38333333333334,-0.0824961038227271
76.4,-0.08252838375591617
76.41666666666667,-0.08255998943359949
76.43333333333334,-0.08259095641072275
76.45,-0.08262131584943412
76.46666666666667,-0.08265109538482823
76.48333333333333,-0.0826803197683612
76.5,-0.08270901136684475
76.51666666666667,-0.08273719054840402
76.53333333333333,-0.08276487599319099
76.55,-0.08279208493559997
76.56666666666666,-0.08281883339267279
76.58333333333333,-0.08284513632667541
76.6,-0.08287100779387417
76.61666666666666,-0.08289646107798417
76.63333333333334,-0.08292150879227879
76.65,-0.08294616297813091
76.66666666666667,-0.08297043516916054
76.68333333333334,-0.08299433648612961
76.7,-0.08301787767523709
76.71666666666667,-0.08304106914954829
76.73333333333333,-0.08306392106075816
76.75,-0.08308644330925843
76.76666666666667,-0.08310864558260121
76.78333333333333,-0.08313053738107867
76.8,-0.08315212803262348
76.81666666666666,-0.08317342672728907
76.83333333333333,-0.08319444249681064
76.85,-0.08321518425789126
76.86666666666666,-0.08323566080425836
76.88333333333334,-0.08325588081536511
76.9,-0.08327585285184197
76.91666666666667,-0.08329558537138543
76.93333333333334,-0.08331508672277137
76.95,-0.08333436514326453
76.96666666666667,-0.08335342876150514
76.98333333333333,-0.08337228558615296
77.0,-0.08339094351770551
77.01666666666667,-0.08614174250902301
77.03333333333333,-0.08778714842321741
77.05,-0.0887883670364995
77.06666666666666,-0.08941332510256098
77.08333333333333,-0.08981782770421745
77.1,-0.09009259970452133
77.11666666666666,-0.09029056279505962
77.13333333333334,-0.09044265945939488
77.15,-0.09056703803123438
77.16666666666667,-0.09067438794577266
77.18333333333334,-0.09077104153860308
77.2,-0.09086077936888871
77.21666666666667,-0.09094588243326886
77.23333333333333,-0.09102774653548223
77.25,-0.09110724184724
77.26666666666667,-0.09118492394109365
77.28333333333333,-0.09126115815729748
77.3,-0.09133619323696988
77.31666666666666,-0.09141020521956905
77.33333333333333,-0.09148332382946824
77.35,-0.09155564849883951
77.36666666666666,-0.09162725824793878
77.38333333333334,-0.09169821787869935
77.4,-0.09176858193670775
77.41666666666667,-0.09183839730778767
77.43333333333334,-0.09190770498045989
77.45,-0.09197654125684972
77.46666666666667,-0.09204493864377022
77.48333333333333,-0.09211292649827962
77.5,-0.09218053152565289
77.51666666666667,-0.09224777817508177
77.53333333333333,-0.0923146889504397
77.55,-0.09238128466146224
77.56666666666666,-0.09244758464665544
77.58333333333333,-0.0925136069467354
77.6,-0.09257936845594063
77.61666666666666,-0.09264488505813431
77.63333333333334,-0.09271017173245677
77.65,-0.09277524265539373
77.66666666666667,-0.09284011128618795
77.68333333333334,-0.09290479043163866
77.7,-0.09296929232091926
77.71666666666667,-0.09303362865314017
77.73333333333333,-0.09309781064954224
77.75,-0.09316184909173265
77.76666666666667,-0.09322575436918157
77.78333333333333,-0.09328953649046083
77.8,-0.0933532051327159
77.81666666666666,-0.09341676965240044
77.83333333333333,-0.09348023911137666
77.85,-0.09354362228725369
77.86666666666666,-0.09360692769936405
77.88333333333334,-0.09367016361759996
77.9,-0.09373333806598017
77.91666666666667,-0.09379645884268079
77.93333333333334,-0.09385953352511059
77.95,-0.09392256947121681
77.96666666666667,-0.09398557383699807
77.98333333333333,-0.09404855356388186
78.0,-0.09411151539889369
78.01666666666667,-0.09066153882244576
78.03333333333333,-0.08863389609430046
78.05,-0.0874347069375472
78.06666666666666,-0.08671913058473023
78.08333333333333,-0.08628672792157036
78.1,-0.0860208391328839
78.11666666666666,-0.08585344793050731
78.13333333333334,-0.0857448076727828
78.15,-0.0856716204845938
78.16666666666667,-0.0856201738817568
78.18333333333334,-0.08558235226587177
78.2,-0.08555331649563229
78.21666666666667,-0.08553015199880476
78.23333333333333,-0.08551107973078853
78.25,-0.08549499459085838
78.26666666666667,-0.08548119458488786
78.28333333333333,-0.08546922131038553
78.3,-0.08545876549752814
78.31666666666666,-0.0854496107506034
78.33333333333333,-0.08544159972988008
78.35,-0.08543461359353088
78.36666666666666,-0.08542855936924845
78.38333333333334,-0.08542336200417038
78.4,-0.08541895929662739
78.41666666666667,-0.08541529856728035
78.43333333333334,-0.08541233440683792
78.45,-0.08541002711273694
78.46666666666667,-0.08540834156317033
78.48333333333333,-0.08540724639277861
78.5,-0.08540671334777053
78.51666666666667,-0.08540671678323188
78.53333333333333,-0.08540723327856545
78.55,-0.08540824130710112
78.56666666666666,-0.08540972096054708
78.58333333333333,-0.08541165372621418
78.6,-0.08541402230426526
78.61666666666666,-0.08541681043067038
78.63333333333334,-0.08542000276110612
78.65,-0.08542358472525433
78.66666666666667,-0.08542754244065749
78.68333333333334,-0.08543186262698046
78.7,-0.08543653252049103
78.71666666666667,-0.08544153981343623
78.73333333333333,-0.08544687260372068
78.75,-0.08545251934037645
78.76666666666667,-0.08545846879060552
78.78333333333333,-0.0854647099965355
78.8,-0.08547123225772366
78.81666666666666,-0.08547802509896305
78.83333333333333,-0.08548507824948531
78.85,-0.08549238164895347
78.86666666666666,-0.08549992540291512
78.88333333333334,-0.08550769979214654
78.9,-0.08551569526366473
78.91666666666667,-0.08552390242124258
78.93333333333334,-0.08553231202447127
78.95,-0.08554091498488067
78.96666666666667,-0.08554970236742974
78.98333333333333,-0.08555866538464021
79.0,-0.08556779540674571
79.01666666666667,-0.08206176197924832
79.03333333333333,-0.07998304255949766
79.05,-0.07873540660672197
79.06666666666666,-0.07797278501913661
79.08333333333333,-0.07749410100347019
79.1,-0.07718236522921838
79.11666666666666,-0.07696939093564174
79.13333333333334,-0.07681534205693213
79.15,-0.07669687195043108
79.16666666666667,-0.07660023941522599
79.18333333333334,-0.07651730981703865
79.2,-0.07644322956549633
79.21666666666667,-0.07637507178812268
79.23333333333333,-0.07631104617258565
79.25,-0.07625003692889573
79.26666666666667,-0.07619133173780558
79.28333333333333,-0.07613446218667821
79.3,-0.07607910931474576
79.31666666666666,-0.07602504734956006
79.33333333333333,-0.07597210990789796
79.35,-0.07592016945550245
79.36666666666666,-0.07586912465765401
79.38333333333334,-0.07581889244635151
79.4,-0.07576940293437344
79.41666666666667,-0.07572059609019005
79.43333333333334,-0.07567241947317169
79.45,-0.07562482665963123
79.46666666666667,-0.07557777611180921
79.48333333333333,-0.07553123033824355
79.5,-0.0754851552418057
79.51666666666667,-0.07543951960906749
79.53333333333333,-0.07539429470772475
79.55,-0.07534945395741108
79.56666666666666,-0.07530497263008057
79.58333333333333,-0.07526082763966938
79.6,-0.07521699732587757
79.61666666666666,-0.07517346128870771
79.63333333333334,-0.07513020024143431
79.65,-0.07508719588668178
79.66666666666667,-0.07504443079916347
79.68333333333334,-0.07500188833577867
79.7,-0.07495955255414744
79.71666666666667,-0.07491740814638359
79.73333333333333,-0.07487544036485139
79.75,-0.0748336349734937
79.76666666666667,-0.07479197821231874
79.78333333333333,-0.07475045675304251
79.8,-0.07470905765928887
79.81666666666666,-0.0746677683701044
79.83333333333333,-0.07462657666504866
79.85,-0.07458547065734264
79.86666666666666,-0.074544438767128
79.88333333333334,-0.07450346971735815
79.9,-0.07446255251127125
79.91666666666667,-0.07442167644245454
79.93333333333334,-0.07438083106565084
79.95,-0.07434000620853211
79.96666666666667,-0.07429919195819701
79.98333333333333,-0.07425837866804781
80.0,-0.07421755694765839
80.01666666666667,-0.06869077317004593
80.03333333333333,-0.06539930726800829
80.05,-0.06340845765074175
80.06666666666666,-0.06217607058492155
80.08333333333333,-0.06138735329315736
80.1,-0.06085927906068657
80.11666666666666,-0.06048524324002256
80.13333333333334,-0.06020300677984156
80.15,-0.059976117434201205
80.16666666666667,-0.05978313444214515
80.18333333333334,-0.05961137338511369
80.2,-0.05945327099434757
80.21666666666667,-0.05930426946706384
80.23333333333333,-0.059161582960446
80.25,-0.05902347666239821
80.26666666666667,-0.05888884422051401
80.28333333333333,-0.058756959052661144
80.3,-0.05862732722288765
80.31666666666666,-0.05849959986822812
80.33333333333333,-0.05837352055956641
80.35,-0.05824889336545649
80.36666666666666,-0.058125563146796164
80.38333333333334,-0.05800340322201491
80.4,-0.0578823074417992
80.41666666666667,-0.05776218499528344
80.43333333333334,-0.05764295687352405
80.45,-0.05752455342114053
80.46666666666667,-0.057406912538906944
80.48333333333333,-0.05728997836351725
80.5,-0.05717370025434521
80.51666666666667,-0.057058031974281116
80.53333333333333,-0.05694293104924936
80.55,-0.056828358233597526
80.56666666666666,-0.05671427706273843
80.58333333333333,-0.0566006534724947
80.6,-0.056487455487039574
80.61666666666666,-0.05637465294037227
80.63333333333334,-0.05626221725337215
80.65,-0.05615012121651636
80.66666666666667,-0.05603833882060301
80.68333333333334,-0.055926845124554085
80.7,-0.055815616102039944
80.71666666666667,-0.05570462855905655
80.73333333333333,-0.05559386002349238
80.75,-0.0554832886723888
80.76666666666667,-0.05537289327783688
80.78333333333333,-0.05526265314231923
80.8,-0.05515254805620863
80.81666666666666,-0.05504255827463508
80.83333333333333,-0.054932664480782
80.85,-0.05482284775866676
80.86666666666666,-0.054713089603966654
80.88333333333334,-0.054603371890877654
80.9,-0.0544936768638088
80.91666666666667,-0.054383987165681304
80.93333333333334,-0.05427428579775057
80.95,-0.05416455616082241
80.96666666666667,-0.05405478202075967
80.98333333333333,-0.05394494755134633
81.0,-0.05383503731694166
81.01666666666667,-0.05436529314175579
81.03333333333333,-0.05463415848113217
81.05,-0.054750865966123954
81.06666666666666,-0.05477877015684324
81.08333333333333,-0.054754652216045016
81.1,-0.05469989243221407
81.11666666666666,-0.05462693880004861
81.13333333333334,-0.05454305387518719
81.15,-0.054452486410793616
81.16666666666667,-0.05435773086238089
81.18333333333334,-0.05426025858579823
81.2,-0.05416094276345326
81.21666666666667,-0.05406030572793213
81.23333333333333,-0.053958663144391454
81.25,-0.05385620830315835
81.26666666666667,-0.05375306150329233
81.28333333333333,-0.053649299127399235
81.3,-0.05354497083323681
81.31666666666666,-0.05344010978493842
81.33333333333333,-0.053334738799021036
81.35,-0.05322887406141553
81.36666666666666,-0.05312252742568566
81.38333333333334,-0.05301570783208601
81.4,-0.05290842222899015
81.41666666666667,-0.052800676144951667
81.43333333333334,-0.05269247408985091
81.45,-0.052583819827282365
81.46666666666667,-0.05247471654586494
81.48333333333333,-0.05236516699993068
81.5,-0.0522551735940963
81.51666666666667,-0.05214473847192731
81.53333333333333,-0.052033863544931905
81.55,-0.05192255054417634
81.56666666666666,-0.0518108010473338
