,Room Exergy Demand [W]
72.0,-0.06446294895841805
72.01666666666667,-0.06536563377882111
72.03333333333333,-0.06604015298165737
72.05,-0.06658113598424589
72.06666666666666,-0.06704365494761598
72.08333333333333,-0.06745978646467508
72.1,-0.0678482323241882
72.11666666666666,-0.06821991005420941
72.13333333333334,-0.06858120292979869
72.15,-0.06893585036598017
72.16666666666667,-0.06928604826831043
72.18333333333334,-0.06963309010971147
72.2,-0.06997774090617621
72.21666666666667,-0.07032045575298349
72.23333333333333,-0.07066150783959887
72.25,-0.07100106370434323
72.26666666666667,-0.0713392276846456
72.28333333333333,-0.07167606836239468
72.3,-0.07201163443819775
72.31666666666666,-0.07234596437775828
72.33333333333333,-0.07267909235821178
72.35,-0.07301105198684983
72.36666666666666,-0.07334187865839124
72.38333333333334,-0.07367161106224492
72.4,-0.07400029212349195
72.41666666666667,-0.07432796957447717
72.43333333333334,-0.07465469626019985
72.45,-0.07498053024146527
72.46666666666667,-0.07530553475976588
72.48333333333333,-0.0756297780750054
72.5,-0.07595333321631739
72.51666666666667,-0.07627627766633549
72.53333333333333,-0.076598692987725
72.55,-0.07692066440672762
72.56666666666666,-0.0772422803765943
72.58333333333333,-0.07756363211765094
72.6,-0.07788481315826927
72.61666666666666,-0.07820591886590386
72.63333333333334,-0.07852704599744183
72.65,-0.07884829225735243
72.66666666666667,-0.07916975587140664
72.68333333333334,-0.07949153518539495
72.7,-0.07981372828820486
72.71666666666667,-0.08013643265964372
72.73333333333333,-0.08045974484341355
72.75,-0.08078376015220068
72.76666666666667,-0.08110857239642706
72.78333333333333,-0.08143427364758751
72.8,-0.08176095401512487
72.81666666666666,-0.0820887014665954
72.83333333333333,-0.08241760165923952
72.85,-0.08274773780223565
72.86666666666666,-0.08307919053639161
72.88333333333334,-0.083412037842538
72.9,-0.0837463549607641
72.91666666666667,-0.08408221433301517
72.93333333333334,-0.08441968556266488
72.95,-0.08475883538244139
72.96666666666667,-0.08509972764467778
72.98333333333333,-0.08544242331906267
73.0,-0.0857869805024847
73.01666666666667,-0.08535915777029916
73.03333333333333,-0.08519530823378492
73.05,-0.08518593719678995
73.06666666666666,-0.08526744944372704
73.08333333333333,-0.08540287524086809
73.1,-0.08557069889963873
73.11666666666666,-0.08575838092153004
73.13333333333334,-0.08595859991788138
73.15,-0.08616707106768859
73.16666666666667,-0.08638127880944105
73.18333333333334,-0.0865997399228537
73.2,-0.08682157445908278
73.21666666666667,-0.08704625547887548
73.23333333333333,-0.0872734627119879
73.25,-0.08750299668409194
73.26666666666667,-0.08773472807227327
73.28333333333333,-0.0879685676302687
73.3,-0.08820444816801733
73.31666666666666,-0.08844231362675631
73.33333333333333,-0.0886821123653782
73.35,-0.08892379299228184
73.36666666666666,-0.08916730173947722
73.38333333333334,-0.08941258083561839
73.4,-0.08965956749731194
73.41666666666667,-0.08990819336887411
73.43333333333334,-0.09015838426876206
73.45,-0.09041006015598431
73.46666666666667,-0.0906631352738528
73.48333333333333,-0.09091751842259424
73.5,-0.09117311333336484
73.51666666666667,-0.09142981912476147
73.53333333333333,-0.09168753080542696
73.55,-0.09194613982540409
73.56666666666666,-0.09220553464545365
73.58333333333333,-0.09246560132181775
73.6,-0.09272622408511673
73.61666666666666,-0.09298728591144505
73.63333333333334,-0.09324866908169105
73.65,-0.0935102557075247
73.66666666666667,-0.09377192823748248
73.68333333333334,-0.0940335699224269
73.7,-0.09429506525654137
73.71666666666667,-0.09455630037042863
73.73333333333333,-0.09481716339501395
73.75,-0.09507754478703802
73.76666666666667,-0.09533733761398333
73.78333333333333,-0.09559643780428523
73.8,-0.09585474436744366
73.81666666666666,-0.09611215957539682
73.83333333333333,-0.09636858911144543
73.85,-0.09662394219917107
73.86666666666666,-0.09687813169367847
73.88333333333334,-0.0971310741516299
73.9,-0.09738268988005952
73.91666666666667,-0.09763290296063058
73.93333333333334,-0.09788164125753318
73.95,-0.09812883640517267
73.96666666666667,-0.09837442378586642
73.98333333333333,-0.09861834248310401
74.0,-0.09886053523994844
74.01666666666667,-0.09849490291110105
74.03333333333333,-0.09833032336725969
74.05,-0.09828177762351614
74.06666666666666,-0.09829992156588184
74.08333333333333,-0.09835608227854108
74.1,-0.09843357231162718
74.11666666666666,-0.09852265932699786
74.13333333333334,-0.09861765130031341
74.15,-0.09871520654602314
74.16666666666667,-0.09881335312259976
74.18333333333334,-0.09891091929431532
74.2,-0.09900720230309695
74.21666666666667,-0.09910177539542361
74.23333333333333,-0.09919437512381851
74.25,-0.09928483530715548
74.26666666666667,-0.09937304814902513
74.28333333333333,-0.09945894119775464
74.3,-0.0995424635736916
74.31666666666666,-0.09962357763639651
74.33333333333333,-0.0997022538822899
74.35,-0.09977846775367812
74.36666666666666,-0.09985219762238039
74.38333333333334,-0.09992342348857532
74.4,-0.09999212613879285
74.41666666666667,-0.1000582865992885
74.43333333333334,-0.10012188579947012
74.45,-0.1001829043713039
74.46666666666667,-0.10024132255741498
74.48333333333333,-0.10029712019289314
74.5,-0.10035027674803526
74.51666666666667,-0.10040077141226951
74.53333333333333,-0.10044858321076197
74.55,-0.10049369114542799
74.56666666666666,-0.1005360743457637
74.58333333333333,-0.10057571223607104
74.6,-0.10061258469906048
74.61666666666666,-0.10064667223756248
74.63333333333334,-0.10067795614006875
74.65,-0.10070641862831428
74.66666666666667,-0.10073204300060051
74.68333333333334,-0.10075481376222886
74.7,-0.1007747167408239
74.71666666666667,-0.10079173919302793
74.73333333333333,-0.10080586989242124
74.75,-0.10081709920681874
74.76666666666667,-0.10082541915804212
74.78333333333333,-0.1008308234739823
74.8,-0.1008333076236501
74.81666666666666,-0.10083286884194749
74.83333333333333,-0.1008295061394801
74.85,-0.10082322031089587
74.86666666666666,-0.10081401392079316
74.88333333333334,-0.10080189129611307
74.9,-0.10078685849378137
74.91666666666667,-0.1007689232760634
74.93333333333334,-0.10074809507348355
74.95,-0.10072438494064591
74.96666666666667,-0.1006978055099437
74.98333333333333,-0.10066837094201943
75.0,-0.10063609687125356
75.01666666666667,-0.10001111252397617
75.03333333333333,-0.0995778121510867
75.05,-0.09925475594503587
75.06666666666666,-0.09899476343039193
75.08333333333333,-0.09877047882160857
75.1,-0.09856602545253335
75.11666666666666,-0.09837217862492575
75.13333333333334,-0.09818357215797666
75.15,-0.09799708083911719
75.16666666666667,-0.09781088306191875
75.18333333333334,-0.0976239170959857
75.2,-0.09743556526906709
75.21666666666667,-0.09724547020766267
75.23333333333333,-0.09705342765693316
75.25,-0.09685932374677973
75.26666666666667,-0.09666309810608811
75.28333333333333,-0.09646472203562458
75.3,-0.0962641854773021
75.31666666666666,-0.09606148915275184
75.33333333333333,-0.09585663976190097
75.35,-0.09564964700114077
75.36666666666666,-0.09544052169951305
75.38333333333334,-0.09522927464099763
75.4,-0.09501591582291861
75.41666666666667,-0.09480045400762475
75.43333333333334,-0.09458289647221066
75.45,-0.09436324889875017
75.46666666666667,-0.0941415153648284
75.48333333333333,-0.093917698410627
75.5,-0.09369179916492046
75.51666666666667,-0.09346381750898278
75.53333333333333,-0.09323375227086995
75.55,-0.0930016014390347
75.56666666666666,-0.09276736238924842
75.58333333333333,-0.0925310321103778
75.6,-0.09229260743769174
75.61666666666666,-0.09205208527364721
75.63333333333334,-0.09180946279815058
75.65,-0.0915647376751352
75.66666666666667,-0.09131790823230779
75.68333333333334,-0.0910689736369785
75.7,-0.09081793404413369
75.71666666666667,-0.0905647907328107
75.73333333333333,-0.0903095462257019
75.75,-0.09005220438343091
75.76666666666667,-0.08979277049339567
75.78333333333333,-0.08953125133084781
75.8,-0.08926765521082301
75.81666666666666,-0.08900199202540694
75.83333333333333,-0.08873427326272024
75.85,-0.088464512017315
75.86666666666666,-0.08819272299104895
75.88333333333334,-0.0879189224766193
75.9,-0.0876431283378746
75.91666666666667,-0.08736535998182436
75.93333333333334,-0.08708563831964776
75.95,-0.08680398572213575
75.96666666666667,-0.08652042597374376
75.98333333333333,-0.08623498422034123
76.0,-0.08594768690779629
76.01666666666667,-0.08636499326645884
76.03333333333333,-0.08655329687779541
76.05,-0.08660739953051931
76.06666666666666,-0.08658233183038258
76.08333333333333,-0.08651007430186856
76.1,-0.08640924097984408
76.11666666666666,-0.08629068930729958
76.13333333333334,-0.08616077152011911
76.15,-0.0860232201565546
76.16666666666667,-0.08588024228247679
76.18333333333334,-0.08573315511214008
76.2,-0.08558275569016244
76.21666666666667,-0.08542953628126355
76.23333333333333,-0.08527381014297393
76.25,-0.08511578521564699
76.26666666666667,-0.08495560749665924
76.28333333333333,-0.08479338672035139
76.3,-0.0846292116887324
76.31666666666666,-0.0844631595243338
76.33333333333333,-0.08429530131156039
76.35,-0.08412570559036467
76.36666666666666,-0.08395444052716834
76.38333333333334,-0.08378157528034971
76.4,-0.08360718083323453
76.41666666666667,-0.08343133048426855
76.43333333333334,-0.08325410009682763
76.45,-0.08307556817794952
76.46666666666667,-0.0828958158314838
76.48333333333333,-0.08271492661346252
76.5,-0.08253298632286521
76.51666666666667,-0.08235008272939125
76.53333333333333,-0.08216630527475399
76.55,-0.08198174473817031
76.56666666666666,-0.08179649289133746
76.58333333333333,-0.08161064214553253
76.6,-0.0814242851967787
76.61666666666666,-0.08123751468342513
76.63333333333334,-0.08105042285065242
76.65,-0.08086310123140855
76.66666666666667,-0.08067564034717668
76.68333333333334,-0.08048812943154993
76.7,-0.08030065617104586
76.71666666666667,-0.08011330647852656
76.73333333333333,-0.07992616428210686
76.75,-0.07973931134147864
76.76666666666667,-0.07955282708967452
76.78333333333333,-0.07936678849561536
76.8,-0.07918126995133355
76.81666666666666,-0.07899634317402635
76.83333333333333,-0.07881207713679546
76.85,-0.07862853801126679
76.86666666666666,-0.07844578912812818
76.88333333333334,-0.07826389095774997
76.9,-0.07808290109830292
76.91666666666667,-0.07790287428438036
76.93333333333334,-0.07772386240035539
76.95,-0.0775459145089501
76.96666666666667,-0.07736907688693032
76.98333333333333,-0.07719339307057858
77.0,-0.07701890390332859
77.01666666666667,-0.07752617027646154
77.03333333333333,-0.07781464322538088
77.05,-0.07797585045714611
77.06666666666666,-0.07806302978962448
77.08333333333333,-0.07810718318742386
77.1,-0.0781263922019978
77.11666666666666,-0.0781312251094912
77.13333333333334,-0.07812787686581145
77.15,-0.07811999351900947
77.16666666666667,-0.0781097330071036
77.18333333333334,-0.07809838250117423
77.2,-0.07808671808814349
77.21666666666667,-0.07807521464272398
77.23333333333333,-0.07806416850983103
77.25,-0.07805376940730821
77.26666666666667,-0.0780441426968421
77.28333333333333,-0.07803537434756165
77.3,-0.07802752575621404
77.31666666666666,-0.07802064262136423
77.33333333333333,-0.07801476029972185
77.35,-0.07800990708892015
77.36666666666666,-0.07800610626534361
77.38333333333334,-0.07800337737824149
77.4,-0.07800173709109215
77.41666666666667,-0.07800119974218432
77.43333333333334,-0.0780017777281672
77.45,-0.07800348177558693
77.46666666666667,-0.07800632114072556
77.48333333333333,-0.07801030375563446
77.5,-0.07801543633900089
77.51666666666667,-0.07802172449123496
77.53333333333333,-0.0780291727579391
77.55,-0.07803778469268995
77.56666666666666,-0.0780475629016572
77.58333333333333,-0.07805850908468577
77.6,-0.07807062407022686
77.61666666666666,-0.07808390784740812
77.63333333333334,-0.07809835958819432
77.65,-0.0781139776807937
77.66666666666667,-0.07813075974461144
77.68333333333334,-0.07814870265704911
77.7,-0.07816780257601574
77.71666666666667,-0.07818805495737839
77.73333333333333,-0.0782094545790955
77.75,-0.07823199556119652
77.76666666666667,-0.07825567138599654
77.78333333333333,-0.07828047491996966
77.8,-0.07830639843302029
77.81666666666666,-0.07833343362420282
77.83333333333333,-0.07836157163687708
77.85,-0.07839080308568863
77.86666666666666,-0.07842111807450157
77.88333333333334,-0.07845250621933536
77.9,-0.07848495667089718
77.91666666666667,-0.0785184581328661
77.93333333333334,-0.0785529988880859
77.95,-0.07858856681365857
77.96666666666667,-0.07862514940650725
77.98333333333333,-0.07866273380155589
78.0,-0.07870130679437085
78.01666666666667,-0.07784156406873512
78.03333333333333,-0.0772842445880648
78.05,-0.07690346365514138
78.06666666666666,-0.07662617010516963
78.08333333333333,-0.0764099236473404
78.1,-0.07623003068922757
78.11666666666666,-0.07607209423234994
78.13333333333334,-0.07592769704834784
78.15,-0.07579189886575588
78.16666666666667,-0.07566178420935724
78.18333333333334,-0.07553561905111016
78.2,-0.07541236045952618
78.21666666666667,-0.07529137104250418
78.23333333333333,-0.07517225231723566
78.25,-0.07505474721658344
78.26666666666667,-0.07493868282989241
78.28333333333333,-0.07482393661785502
78.3,-0.07471041634739091
78.31666666666666,-0.07459804808097538
78.33333333333333,-0.07448676891056637
78.35,-0.0743765225116858
78.36666666666666,-0.07426725639248322
78.38333333333334,-0.0741589201681983
78.4,-0.07405146447603576
78.41666666666667,-0.07394484029277815
78.43333333333334,-0.07383899851553771
78.45,-0.07373388972194639
78.46666666666667,-0.07362946404642907
78.48333333333333,-0.07352567114811501
78.5,-0.07342246024257415
78.51666666666667,-0.0733197801707777
78.53333333333333,-0.07321757950834257
78.55,-0.07311580669038432
78.56666666666666,-0.0730144101591745
78.58333333333333,-0.07291333851129032
78.6,-0.07281254065567973
78.61666666666666,-0.07271196596901408
78.63333333333334,-0.07261156444247328
78.65,-0.07251128682947257
78.66666666666667,-0.07241108478246026
78.68333333333334,-0.07231091097549318
78.7,-0.07221071922376109
78.71666666666667,-0.07211046458596385
78.73333333333333,-0.07201010345560742
78.75,-0.07190959364346104
78.76666666666667,-0.07180889444303068
78.78333333333333,-0.07170796669156293
78.8,-0.07160677280945978
78.81666666666666,-0.07150527684292776
78.83333333333333,-0.07140344448525332
78.85,-0.07130124309366077
78.86666666666666,-0.07119864169569129
78.88333333333334,-0.07109561099295729
78.9,-0.07099212334906854
78.91666666666667,-0.07088815277940554
78.93333333333334,-0.07078367492892651
78.95,-0.07067866705048555
78.96666666666667,-0.07057310797294657
78.98333333333333,-0.07046697807073947
79.0,-0.07036025922556517
79.01666666666667,-0.06939525094804076
79.03333333333333,-0.06872108622845997
79.05,-0.06821571867011683
79.06666666666666,-0.06780847902049325
79.08333333333333,-0.06745840315152217
79.1,-0.06714171293924699
79.11666666666666,-0.06684458118132655
79.13333333333334,-0.06655894815807051
79.15,-0.06628010120485817
79.16666666666667,-0.06600527328038587
79.18333333333334,-0.0657328307675731
79.2,-0.06546180220088185
79.21666666666667,-0.06519160439060315
79.23333333333333,-0.06492188294374956
79.25,-0.06465241914154063
79.26666666666667,-0.0643830753790518
79.28333333333333,-0.06411376304362658
79.3,-0.06384442348164625
79.31666666666666,-0.06357501663441477
79.33333333333333,-0.06330551418030696
79.35,-0.0630358953375755
79.36666666666666,-0.06276614426272095
79.38333333333334,-0.062496248407061715
79.4,-0.06222619745666608
79.41666666666667,-0.061955982643757915
79.43333333333334,-0.06168559628850015
79.45,-0.06141503149338992
79.46666666666667,-0.06114428194499043
79.48333333333333,-0.06087334178138351
79.5,-0.060602205514415704
79.51666666666667,-0.06033086798262689
79.53333333333333,-0.06005932433865765
79.55,-0.059787570047324386
79.56666666666666,-0.05951560090382431
79.58333333333333,-0.059243413054830114
79.6,-0.05897100303166019
79.61666666666666,-0.058698367783694735
79.63333333333334,-0.05842550471334466
79.65,-0.058152411712583216
79.66666666666667,-0.05787908719221617
79.68333333333334,-0.05760553011810237
79.7,-0.05733174003587486
79.71666666666667,-0.057057717095417036
79.73333333333333,-0.05678346207246329
79.75,-0.056508976384639094
79.76666666666667,-0.05623426210075056
79.78333333333333,-0.05595932195407863
79.8,-0.05568415934121335
79.81666666666666,-0.05540877832492821
79.83333333333333,-0.055133183632451274
79.85,-0.05485738064481032
79.86666666666666,-0.054581375391415665
79.88333333333334,-0.05430517453467581
79.9,-0.05402878535914949
79.91666666666667,-0.053752215750697475
79.93333333333334,-0.05347547418060569
79.95,-0.053198569683992974
79.96666666666667,-0.05292151183926653
79.98333333333333,-0.052644310745375046
80.0,-0.05236697699594479
80.01666666666667,-0.050937307198912166
80.03333333333333,-0.04990096967032539
80.05,-0.049092483887912104
80.06666666666666,-0.04841647292145258
80.08333333333333,-0.04781790971416135
80.1,-0.04726500661597491
80.11666666666666,-0.04673937107882118
80.13333333333334,-0.046230338940359494
80.15,-0.045731710495692975
80.16666666666667,-0.045239869114864384
80.18333333333334,-0.044752695743220314
80.2,-0.044268941813349824
80.21666666666667,-0.04378786637138921
80.23333333333333,-0.04330902561709964
80.25,-0.0428321504700478
80.26666666666667,-0.042357075046054626
80.28333333333333,-0.04188369464640292
80.3,-0.04141194090602777
80.31666666666666,-0.040941766962600844
80.33333333333333,-0.04047313852156236
80.35,-0.040006028415561154
80.36666666666666,-0.03954041326923004
80.38333333333334,-0.03907627145187214
80.4,-0.038613581837649784
80.41666666666667,-0.038152323086470444
80.43333333333334,-0.03769247326832284
80.45,-0.03723400972536975
80.46666666666667,-0.036776909093037054
80.48333333333333,-0.03632114744048907
80.5,-0.03586670048894382
80.51666666666667,-0.03541354388358305
80.53333333333333,-0.03496165350262668
80.55,-0.03451100578415296
80.56666666666666,-0.034061578059485786
80.58333333333333,-0.03361334888354199
80.6,-0.03316629835412765
80.61666666666666,-0.032720408410778896
80.63333333333334,-0.032275663113332284
80.65,-0.031832048896388444
80.66666666666667,-0.03138955479066949
80.68333333333334,-0.030948172619539388
80.7,-0.03050789716212177
80.71666666666667,-0.030068726289298082
80.73333333333333,-0.029630661066024647
80.75,-0.0291937058320016
80.76666666666667,-0.028757868247763663
80.78333333333333,-0.028323159322423862
80.8,-0.027889593413438954
80.81666666666666,-0.027457188207899285
80.83333333333333,-0.027025964682764966
80.85,-0.02659594704829425
80.86666666666666,-0.02616716267594369
80.88333333333334,-0.025739642011592484
80.9,-0.02531341847994342
80.91666666666667,-0.0248885283765347
80.93333333333334,-0.02446501075170374
80.95,-0.02404290728776203
80.96666666666667,-0.023622262172793177
80.98333333333333,-0.023203121967222937
81.0,-0.02278553546877308
81.01666666666667,-0.022455227503783155
81.03333333333333,-0.02209891515823026
81.05,-0.021728285280624354
81.06666666666666,-0.021350068722148945
81.08333333333333,-0.020968156154257372
81.1,-0.020584809978830138
81.11666666666666,-0.020201358649455114
81.13333333333334,-0.019818594589826134
81.15,-0.019437002323373618
81.16666666666667,-0.01905688932426643
81.18333333333334,-0.01867846110379183
81.2,-0.018301864317593224
81.21666666666667,-0.01792721152076416
81.23333333333333,-0.017554595379292482
81.25,-0.017184096825855675
81.26666666666667,-0.01681578972972281
81.28333333333333,-0.016449743562919058
81.3,-0.01608602491555553
81.31666666666666,-0.015724698352920806
81.33333333333333,-0.015365826896399966
81.35,-0.015009472298504457
81.36666666666666,-0.014655695200060522
81.38333333333334,-0.014304555231325856
81.4,-0.013956111084214075
81.41666666666667,-0.01361042057393784
81.43333333333334,-0.013267540698500844
81.45,-0.012927527702409316
81.46666666666667,-0.012590437141486088
81.48333333333333,-0.012256323955095093
81.5,-0.011925242537719621
81.51666666666667,-0.011597246813139419
81.53333333333333,-0.011272390305894048
